== Filter Data - Lambda 9 Spectrophotometer ==
  Kitt Peak National Observatory - NOAO
------------------------------------------------
# source:https://sites.google.com/a/lbto.org/lbc/instrument-description/filters
Filter: BESSEL U
Date: 08/03/17   Time: 12:30:23  Operator: RRJ
cwl=  3590.05A  fwhm= 482.87A  Tmax= 65.75% at  3600.00A
Tcutoff=  2.00 %  Slitsize = 10 A
fwhm spans 3348.61A to 3831.48A
90%  spans 3487.05A to 3731.43A
bw90 is  0.506; Tmin90/Tmax is  0.900
No data smoothing

Npts=  241     Disp=  5.00A/Interval
*****
  2900.00    -0.005
  2905.00     0.000
  2910.00    -0.005
  2915.00    -0.005
  2920.00    -0.005
  2925.00     0.000
  2930.00    -0.005
  2935.00    -0.005
  2940.00    -0.005
  2945.00    -0.005
  2950.00    -0.005
  2955.00    -0.005
  2960.00    -0.005
  2965.00    -0.005
  2970.00    -0.005
  2975.00    -0.005
  2980.00    -0.005
  2985.00    -0.005
  2990.00    -0.005
  2995.00    -0.005
  3000.00    -0.005
  3005.00    -0.005
  3010.00    -0.005
  3015.00    -0.005
  3020.00    -0.005
  3025.00    -0.005
  3030.00    -0.005
  3035.00    -0.005
  3040.00    -0.005
  3045.00    -0.005
  3050.00    -0.005
  3055.00    -0.005
  3060.00    -0.005
  3065.00    -0.005
  3070.00    -0.005
  3075.00    -0.005
  3080.00    -0.005
  3085.00    -0.005
  3090.00    -0.005
  3095.00     0.000
  3100.00     0.000
  3105.00     0.000
  3110.00     0.010
  3115.00     0.015
  3120.00     0.025
  3125.00     0.040
  3130.00     0.060
  3135.00     0.085
  3140.00     0.125
  3145.00     0.180
  3150.00     0.245
  3155.00     0.330
  3160.00     0.445
  3165.00     0.585
  3170.00     0.745
  3175.00     0.950
  3180.00     1.190
  3185.00     1.460
  3190.00     1.725
  3195.00     2.150
  3200.00     2.540
  3205.00     2.985
  3210.00     3.465
  3215.00     3.995
  3220.00     4.570
  3225.00     5.180
  3230.00     5.830
  3235.00     6.520
  3240.00     7.245
  3245.00     8.040
  3250.00     8.885
  3255.00     9.755
  3260.00    10.670
  3265.00    11.655
  3270.00    12.645
  3275.00    13.735
  3280.00    14.855
  3285.00    16.010
  3290.00    17.220
  3295.00    18.450
  3300.00    19.720
  3305.00    21.040
  3310.00    22.355
  3315.00    23.735
  3320.00    25.060
  3325.00    26.435
  3330.00    27.850
  3335.00    29.200
  3340.00    30.570
  3345.00    31.900
  3350.00    33.250
  3355.00    34.495
  3360.00    35.745
  3365.00    36.940
  3370.00    38.115
  3375.00    39.215
  3380.00    40.275
  3385.00    41.435
  3390.00    42.430
  3395.00    43.420
  3400.00    44.345
  3405.00    45.310
  3410.00    46.200
  3415.00    47.130
  3420.00    47.955
  3425.00    48.865
  3430.00    49.845
  3435.00    50.630
  3440.00    51.490
  3445.00    52.300
  3450.00    53.235
  3455.00    54.080
  3460.00    54.925
  3465.00    55.750
  3470.00    56.550
  3475.00    57.290
  3480.00    58.165
  3485.00    58.880
  3490.00    59.600
  3495.00    60.235
  3500.00    60.940
  3505.00    61.505
  3510.00    62.125
  3515.00    62.615
  3520.00    63.080
  3525.00    63.445
  3530.00    63.840
  3535.00    64.250
  3540.00    64.615
  3545.00    64.820
  3550.00    65.030
  3555.00    65.155
  3560.00    65.295
  3565.00    65.445
  3570.00    65.575
  3575.00    65.595
  3580.00    65.655
  3585.00    65.650
  3590.00    65.670
  3595.00    65.715
  3600.00    65.750
  3605.00    65.680
  3610.00    65.740
  3615.00    65.635
  3620.00    65.680
  3625.00    65.610
  3630.00    65.665
  3635.00    65.555
  3640.00    65.580
  3645.00    65.580
  3650.00    65.390
  3655.00    65.260
  3660.00    65.175
  3665.00    65.190
  3670.00    64.935
  3675.00    64.675
  3680.00    64.420
  3685.00    64.265
  3690.00    63.930
  3695.00    63.445
  3700.00    62.930
  3705.00    62.540
  3710.00    62.005
  3715.00    61.510
  3720.00    60.765
  3725.00    60.065
  3730.00    59.380
  3735.00    58.665
  3740.00    57.750
  3745.00    56.760
  3750.00    55.775
  3755.00    54.610
  3760.00    53.500
  3765.00    52.380
  3770.00    51.180
  3775.00    49.915
  3780.00    48.585
  3785.00    47.035
  3790.00    45.790
  3795.00    44.305
  3800.00    42.750
  3805.00    41.245
  3810.00    39.695
  3815.00    38.155
  3820.00    36.525
  3825.00    34.920
  3830.00    33.355
  3835.00    31.735
  3840.00    30.135
  3845.00    28.580
  3850.00    26.960
  3855.00    25.355
  3860.00    23.745
  3865.00    22.185
  3870.00    20.685
  3875.00    19.165
  3880.00    17.710
  3885.00    16.330
  3890.00    14.855
  3895.00    13.615
  3900.00    12.375
  3905.00    11.185
  3910.00    10.040
  3915.00     8.990
  3920.00     7.990
  3925.00     7.075
  3930.00     6.230
  3935.00     5.480
  3940.00     4.790
  3945.00     4.130
  3950.00     3.565
  3955.00     3.045
  3960.00     2.590
  3965.00     2.200
  3970.00     1.860
  3975.00     1.550
  3980.00     1.290
  3985.00     1.050
  3990.00     0.870
  3995.00     0.710
  4000.00     0.580
  4005.00     0.465
  4010.00     0.370
  4015.00     0.300
  4020.00     0.235
  4025.00     0.185
  4030.00     0.145
  4035.00     0.115
  4040.00     0.085
  4045.00     0.065
  4050.00     0.050
  4055.00     0.035
  4060.00     0.030
  4065.00     0.020
  4070.00     0.015
  4075.00     0.010
  4080.00     0.010
  4085.00     0.005
  4090.00     0.005
  4095.00     0.000
  4100.00     0.005

