== Filter Data - Lambda 9 Spectrophotometer ==
  Kitt Peak National Observatory - NOAO
------------------------------------------------
# source:https://sites.google.com/a/lbto.org/lbc/instrument-description/filters
Filter: BESSEL V
Date: 08/03/17   Time: 13:40:01  Operator: RRJ
cwl=  5462.10A  fwhm= 1176.74A  Tmax= 93.09% at  5230.00A
Tcutoff=  2.00 %  Slitsize = 10 A
fwhm spans 4873.74A to 6050.47A
90%  spans 5014.23A to 5605.71A
bw90 is  0.503; Tmin90/Tmax is  0.900
No data smoothing

Npts=  601     Disp=  5.00A/Interval
*****
  4500.00     0.005
  4505.00     0.000
  4510.00     0.000
  4515.00     0.005
  4520.00     0.005
  4525.00     0.005
  4530.00     0.005
  4535.00     0.005
  4540.00     0.005
  4545.00     0.005
  4550.00     0.010
  4555.00     0.005
  4560.00     0.010
  4565.00     0.005
  4570.00     0.005
  4575.00     0.005
  4580.00     0.010
  4585.00     0.015
  4590.00     0.015
  4595.00     0.015
  4600.00     0.020
  4605.00     0.020
  4610.00     0.025
  4615.00     0.025
  4620.00     0.030
  4625.00     0.035
  4630.00     0.045
  4635.00     0.045
  4640.00     0.055
  4645.00     0.065
  4650.00     0.080
  4655.00     0.095
  4660.00     0.115
  4665.00     0.150
  4670.00     0.175
  4675.00     0.210
  4680.00     0.265
  4685.00     0.315
  4690.00     0.390
  4695.00     0.475
  4700.00     0.580
  4705.00     0.710
  4710.00     0.865
  4715.00     1.055
  4720.00     1.285
  4725.00     1.560
  4730.00     1.885
  4735.00     2.265
  4740.00     2.695
  4745.00     3.220
  4750.00     3.810
  4755.00     4.495
  4760.00     5.270
  4765.00     6.145
  4770.00     7.110
  4775.00     8.215
  4780.00     9.420
  4785.00    10.755
  4790.00    12.175
  4795.00    13.695
  4800.00    15.335
  4805.00    17.045
  4810.00    18.905
  4815.00    20.855
  4820.00    22.870
  4825.00    25.000
  4830.00    27.130
  4835.00    29.235
  4840.00    31.480
  4845.00    33.670
  4850.00    35.995
  4855.00    38.255
  4860.00    40.495
  4865.00    42.745
  4870.00    44.905
  4875.00    47.100
  4880.00    49.220
  4885.00    51.230
  4890.00    53.265
  4895.00    55.295
  4900.00    57.165
  4905.00    59.030
  4910.00    60.740
  4915.00    62.660
  4920.00    64.205
  4925.00    65.745
  4930.00    67.310
  4935.00    68.630
  4940.00    70.020
  4945.00    71.350
  4950.00    72.600
  4955.00    73.785
  4960.00    74.915
  4965.00    75.965
  4970.00    76.980
  4975.00    77.895
  4980.00    78.775
  4985.00    79.620
  4990.00    80.470
  4995.00    81.290
  5000.00    81.925
  5005.00    82.645
  5010.00    83.265
  5015.00    83.875
  5020.00    84.495
  5025.00    84.990
  5030.00    85.555
  5035.00    86.060
  5040.00    86.490
  5045.00    86.900
  5050.00    87.350
  5055.00    87.725
  5060.00    88.100
  5065.00    88.465
  5070.00    88.740
  5075.00    89.060
  5080.00    89.305
  5085.00    89.610
  5090.00    89.850
  5095.00    90.085
  5100.00    90.330
  5105.00    90.585
  5110.00    90.825
  5115.00    91.025
  5120.00    91.140
  5125.00    91.355
  5130.00    91.490
  5135.00    91.645
  5140.00    91.800
  5145.00    91.925
  5150.00    91.975
  5155.00    92.140
  5160.00    92.245
  5165.00    92.380
  5170.00    92.385
  5175.00    92.490
  5180.00    92.540
  5185.00    92.600
  5190.00    92.670
  5195.00    92.820
  5200.00    92.760
  5205.00    92.785
  5210.00    92.840
  5215.00    92.890
  5220.00    93.000
  5225.00    92.945
  5230.00    93.090
  5235.00    93.020
  5240.00    92.945
  5245.00    93.045
  5250.00    93.030
  5255.00    92.980
  5260.00    93.025
  5265.00    93.050
  5270.00    93.015
  5275.00    92.985
  5280.00    92.910
  5285.00    92.870
  5290.00    92.885
  5295.00    92.790
  5300.00    92.815
  5305.00    92.795
  5310.00    92.710
  5315.00    92.520
  5320.00    92.570
  5325.00    92.495
  5330.00    92.485
  5335.00    92.405
  5340.00    92.330
  5345.00    92.390
  5350.00    92.125
  5355.00    92.110
  5360.00    92.080
  5365.00    91.925
  5370.00    91.840
  5375.00    91.810
  5380.00    91.785
  5385.00    91.620
  5390.00    91.545
  5395.00    91.435
  5400.00    91.270
  5405.00    91.225
  5410.00    91.120
  5415.00    90.970
  5420.00    90.790
  5425.00    90.695
  5430.00    90.630
  5435.00    90.505
  5440.00    90.380
  5445.00    90.335
  5450.00    90.135
  5455.00    89.890
  5460.00    89.740
  5465.00    89.665
  5470.00    89.450
  5475.00    89.365
  5480.00    89.140
  5485.00    88.935
  5490.00    88.735
  5495.00    88.535
  5500.00    88.325
  5505.00    88.200
  5510.00    88.135
  5515.00    87.780
  5520.00    87.670
  5525.00    87.470
  5530.00    87.225
  5535.00    87.115
  5540.00    86.845
  5545.00    86.670
  5550.00    86.400
  5555.00    86.260
  5560.00    85.990
  5565.00    85.830
  5570.00    85.525
  5575.00    85.190
  5580.00    85.010
  5585.00    84.775
  5590.00    84.550
  5595.00    84.335
  5600.00    84.090
  5605.00    83.835
  5610.00    83.455
  5615.00    83.340
  5620.00    82.975
  5625.00    82.620
  5630.00    82.325
  5635.00    82.110
  5640.00    81.830
  5645.00    81.610
  5650.00    81.225
  5655.00    80.935
  5660.00    80.575
  5665.00    80.280
  5670.00    79.950
  5675.00    79.645
  5680.00    79.360
  5685.00    78.935
  5690.00    78.680
  5695.00    78.350
  5700.00    77.965
  5705.00    77.655
  5710.00    77.350
  5715.00    76.900
  5720.00    76.610
  5725.00    76.255
  5730.00    75.910
  5735.00    75.555
  5740.00    75.090
  5745.00    74.815
  5750.00    74.375
  5755.00    74.025
  5760.00    73.700
  5765.00    73.190
  5770.00    72.820
  5775.00    72.490
  5780.00    72.015
  5785.00    71.680
  5790.00    71.275
  5795.00    70.815
  5800.00    70.385
  5805.00    69.975
  5810.00    69.555
  5815.00    69.130
  5820.00    68.680
  5825.00    68.305
  5830.00    67.835
  5835.00    67.430
  5840.00    66.975
  5845.00    66.530
  5850.00    66.110
  5855.00    65.630
  5860.00    65.170
  5865.00    64.730
  5870.00    64.250
  5875.00    63.810
  5880.00    63.395
  5885.00    62.880
  5890.00    62.390
  5895.00    61.935
  5900.00    61.435
  5905.00    60.985
  5910.00    60.500
  5915.00    60.020
  5920.00    59.560
  5925.00    59.030
  5930.00    58.545
  5935.00    58.080
  5940.00    57.635
  5945.00    57.100
  5950.00    56.610
  5955.00    56.135
  5960.00    55.665
  5965.00    55.145
  5970.00    54.575
  5975.00    54.115
  5980.00    53.610
  5985.00    53.110
  5990.00    52.595
  5995.00    52.115
  6000.00    51.645
  6005.00    51.090
  6010.00    50.655
  6015.00    50.100
  6020.00    49.620
  6025.00    49.070
  6030.00    48.605
  6035.00    48.120
  6040.00    47.635
  6045.00    47.110
  6050.00    46.595
  6055.00    46.065
  6060.00    45.575
  6065.00    45.085
  6070.00    44.575
  6075.00    44.080
  6080.00    43.585
  6085.00    43.040
  6090.00    42.580
  6095.00    42.060
  6100.00    41.550
  6105.00    41.045
  6110.00    40.545
  6115.00    40.005
  6120.00    39.620
  6125.00    39.090
  6130.00    38.575
  6135.00    38.085
  6140.00    37.595
  6145.00    37.115
  6150.00    36.635
  6155.00    36.190
  6160.00    35.720
  6165.00    35.240
  6170.00    34.725
  6175.00    34.260
  6180.00    33.775
  6185.00    33.315
  6190.00    32.885
  6195.00    32.405
  6200.00    31.940
  6205.00    31.500
  6210.00    31.035
  6215.00    30.565
  6220.00    30.080
  6225.00    29.655
  6230.00    29.230
  6235.00    28.795
  6240.00    28.340
  6245.00    27.915
  6250.00    27.475
  6255.00    27.045
  6260.00    26.585
  6265.00    26.245
  6270.00    25.795
  6275.00    25.360
  6280.00    24.975
  6285.00    24.560
  6290.00    24.160
  6295.00    23.740
  6300.00    23.350
  6305.00    22.955
  6310.00    22.560
  6315.00    22.180
  6320.00    21.770
  6325.00    21.410
  6330.00    21.020
  6335.00    20.660
  6340.00    20.305
  6345.00    19.930
  6350.00    19.580
  6355.00    19.245
  6360.00    18.870
  6365.00    18.520
  6370.00    18.180
  6375.00    17.850
  6380.00    17.520
  6385.00    17.210
  6390.00    16.850
  6395.00    16.540
  6400.00    16.220
  6405.00    15.905
  6410.00    15.610
  6415.00    15.270
  6420.00    14.980
  6425.00    14.690
  6430.00    14.360
  6435.00    14.110
  6440.00    13.800
  6445.00    13.510
  6450.00    13.240
  6455.00    12.960
  6460.00    12.695
  6465.00    12.410
  6470.00    12.160
  6475.00    11.910
  6480.00    11.650
  6485.00    11.400
  6490.00    11.145
  6495.00    10.905
  6500.00    10.680
  6505.00    10.435
  6510.00    10.200
  6515.00     9.955
  6520.00     9.745
  6525.00     9.525
  6530.00     9.295
  6535.00     9.105
  6540.00     8.880
  6545.00     8.675
  6550.00     8.475
  6555.00     8.280
  6560.00     8.085
  6565.00     7.910
  6570.00     7.700
  6575.00     7.530
  6580.00     7.335
  6585.00     7.165
  6590.00     6.980
  6595.00     6.815
  6600.00     6.650
  6605.00     6.485
  6610.00     6.330
  6615.00     6.175
  6620.00     6.005
  6625.00     5.855
  6630.00     5.705
  6635.00     5.565
  6640.00     5.420
  6645.00     5.280
  6650.00     5.150
  6655.00     5.015
  6660.00     4.875
  6665.00     4.760
  6670.00     4.625
  6675.00     4.500
  6680.00     4.385
  6685.00     4.260
  6690.00     4.155
  6695.00     4.040
  6700.00     3.940
  6705.00     3.820
  6710.00     3.715
  6715.00     3.610
  6720.00     3.500
  6725.00     3.415
  6730.00     3.310
  6735.00     3.230
  6740.00     3.140
  6745.00     3.045
  6750.00     2.960
  6755.00     2.875
  6760.00     2.795
  6765.00     2.715
  6770.00     2.630
  6775.00     2.555
  6780.00     2.485
  6785.00     2.405
  6790.00     2.340
  6795.00     2.270
  6800.00     2.205
  6805.00     2.145
  6810.00     2.075
  6815.00     2.015
  6820.00     1.950
  6825.00     1.895
  6830.00     1.835
  6835.00     1.785
  6840.00     1.725
  6845.00     1.675
  6850.00     1.625
  6855.00     1.575
  6860.00     1.525
  6865.00     1.475
  6870.00     1.430
  6875.00     1.390
  6880.00     1.345
  6885.00     1.300
  6890.00     1.265
  6895.00     1.225
  6900.00     1.170
  6905.00     1.145
  6910.00     1.110
  6915.00     1.075
  6920.00     1.040
  6925.00     1.005
  6930.00     0.975
  6935.00     0.945
  6940.00     0.915
  6945.00     0.885
  6950.00     0.855
  6955.00     0.820
  6960.00     0.800
  6965.00     0.775
  6970.00     0.750
  6975.00     0.720
  6980.00     0.700
  6985.00     0.680
  6990.00     0.655
  6995.00     0.630
  7000.00     0.610
  7005.00     0.595
  7010.00     0.570
  7015.00     0.555
  7020.00     0.535
  7025.00     0.515
  7030.00     0.500
  7035.00     0.480
  7040.00     0.465
  7045.00     0.450
  7050.00     0.440
  7055.00     0.420
  7060.00     0.400
  7065.00     0.390
  7070.00     0.380
  7075.00     0.370
  7080.00     0.355
  7085.00     0.345
  7090.00     0.325
  7095.00     0.315
  7100.00     0.305
  7105.00     0.295
  7110.00     0.285
  7115.00     0.275
  7120.00     0.265
  7125.00     0.255
  7130.00     0.250
  7135.00     0.240
  7140.00     0.230
  7145.00     0.220
  7150.00     0.215
  7155.00     0.205
  7160.00     0.200
  7165.00     0.190
  7170.00     0.185
  7175.00     0.180
  7180.00     0.175
  7185.00     0.165
  7190.00     0.160
  7195.00     0.155
  7200.00     0.150
  7205.00     0.145
  7210.00     0.140
  7215.00     0.135
  7220.00     0.130
  7225.00     0.125
  7230.00     0.120
  7235.00     0.115
  7240.00     0.110
  7245.00     0.110
  7250.00     0.105
  7255.00     0.100
  7260.00     0.095
  7265.00     0.090
  7270.00     0.090
  7275.00     0.085
  7280.00     0.085
  7285.00     0.080
  7290.00     0.075
  7295.00     0.075
  7300.00     0.070
  7305.00     0.070
  7310.00     0.065
  7315.00     0.065
  7320.00     0.060
  7325.00     0.060
  7330.00     0.060
  7335.00     0.055
  7340.00     0.055
  7345.00     0.050
  7350.00     0.050
  7355.00     0.050
  7360.00     0.045
  7365.00     0.040
  7370.00     0.040
  7375.00     0.040
  7380.00     0.040
  7385.00     0.035
  7390.00     0.035
  7395.00     0.035
  7400.00     0.035
  7405.00     0.030
  7410.00     0.030
  7415.00     0.030
  7420.00     0.025
  7425.00     0.030
  7430.00     0.030
  7435.00     0.025
  7440.00     0.025
  7445.00     0.025
  7450.00     0.025
  7455.00     0.020
  7460.00     0.020
  7465.00     0.020
  7470.00     0.020
  7475.00     0.020
  7480.00     0.020
  7485.00     0.015
  7490.00     0.020
  7495.00     0.010
  7500.00     0.020

