== Filter Data - Lambda 9 Spectrophotometer ==
  Kitt Peak National Observatory - NOAO
------------------------------------------------
# source:https://sites.google.com/a/lbto.org/lbc/instrument-description/filters
Filter: BESSEL B
Date: 08/03/17   Time: 13:39:43  Operator: RRJ
cwl=  4231.83A  fwhm= 938.82A  Tmax= 65.70% at  4225.00A
Tcutoff=  2.00 %  Slitsize = 10 A
fwhm spans 3762.42A to 4701.24A
90%  spans 3978.84A to 4442.59A
bw90 is  0.494; Tmin90/Tmax is  0.900
No data smoothing

Npts=  421     Disp=  5.00A/Interval
*****
  3300.00    -0.005
  3305.00     0.000
  3310.00     0.000
  3315.00     0.000
  3320.00    -0.005
  3325.00     0.000
  3330.00    -0.005
  3335.00    -0.005
  3340.00    -0.005
  3345.00    -0.005
  3350.00    -0.005
  3355.00    -0.005
  3360.00    -0.005
  3365.00     0.000
  3370.00    -0.005
  3375.00     0.000
  3380.00     0.000
  3385.00    -0.005
  3390.00    -0.005
  3395.00    -0.005
  3400.00    -0.005
  3405.00    -0.005
  3410.00    -0.005
  3415.00    -0.005
  3420.00    -0.005
  3425.00    -0.005
  3430.00    -0.005
  3435.00    -0.005
  3440.00    -0.005
  3445.00    -0.005
  3450.00     0.000
  3455.00    -0.005
  3460.00     0.000
  3465.00     0.000
  3470.00     0.005
  3475.00     0.005
  3480.00     0.010
  3485.00     0.020
  3490.00     0.030
  3495.00     0.050
  3500.00     0.065
  3505.00     0.095
  3510.00     0.130
  3515.00     0.180
  3520.00     0.240
  3525.00     0.320
  3530.00     0.410
  3535.00     0.525
  3540.00     0.660
  3545.00     0.820
  3550.00     1.010
  3555.00     1.230
  3560.00     1.475
  3565.00     1.760
  3570.00     2.085
  3575.00     2.440
  3580.00     2.835
  3585.00     3.270
  3590.00     3.745
  3595.00     4.260
  3600.00     4.790
  3605.00     5.385
  3610.00     6.020
  3615.00     6.680
  3620.00     7.375
  3625.00     8.105
  3630.00     8.875
  3635.00     9.640
  3640.00    10.455
  3645.00    11.270
  3650.00    12.120
  3655.00    12.995
  3660.00    13.895
  3665.00    14.825
  3670.00    15.715
  3675.00    16.630
  3680.00    17.570
  3685.00    18.530
  3690.00    19.510
  3695.00    20.420
  3700.00    21.360
  3705.00    22.285
  3710.00    23.220
  3715.00    24.240
  3720.00    25.155
  3725.00    26.095
  3730.00    27.035
  3735.00    27.990
  3740.00    28.900
  3745.00    29.815
  3750.00    30.720
  3755.00    31.540
  3760.00    32.415
  3765.00    33.320
  3770.00    34.225
  3775.00    35.030
  3780.00    35.945
  3785.00    36.610
  3790.00    37.555
  3795.00    38.435
  3800.00    39.120
  3805.00    39.930
  3810.00    40.720
  3815.00    41.455
  3820.00    42.175
  3825.00    42.920
  3830.00    43.715
  3835.00    44.355
  3840.00    45.060
  3845.00    45.695
  3850.00    46.520
  3855.00    47.120
  3860.00    47.730
  3865.00    48.295
  3870.00    49.040
  3875.00    49.620
  3880.00    50.185
  3885.00    50.885
  3890.00    51.275
  3895.00    51.940
  3900.00    52.455
  3905.00    52.895
  3910.00    53.490
  3915.00    53.880
  3920.00    54.425
  3925.00    55.020
  3930.00    55.305
  3935.00    55.835
  3940.00    56.385
  3945.00    56.690
  3950.00    57.115
  3955.00    57.465
  3960.00    57.765
  3965.00    58.150
  3970.00    58.525
  3975.00    58.900
  3980.00    59.205
  3985.00    59.460
  3990.00    59.785
  3995.00    60.055
  4000.00    60.310
  4005.00    60.555
  4010.00    60.885
  4015.00    61.115
  4020.00    61.365
  4025.00    61.535
  4030.00    61.890
  4035.00    62.050
  4040.00    62.295
  4045.00    62.310
  4050.00    62.580
  4055.00    62.820
  4060.00    62.935
  4065.00    63.110
  4070.00    63.370
  4075.00    63.575
  4080.00    63.715
  4085.00    63.840
  4090.00    64.055
  4095.00    64.225
  4100.00    64.305
  4105.00    64.450
  4110.00    64.475
  4115.00    64.640
  4120.00    64.685
  4125.00    64.845
  4130.00    64.840
  4135.00    64.880
  4140.00    65.050
  4145.00    65.060
  4150.00    65.190
  4155.00    65.270
  4160.00    65.215
  4165.00    65.325
  4170.00    65.340
  4175.00    65.445
  4180.00    65.555
  4185.00    65.460
  4190.00    65.560
  4195.00    65.615
  4200.00    65.705
  4205.00    65.665
  4210.00    65.700
  4215.00    65.640
  4220.00    65.665
  4225.00    65.705
  4230.00    65.555
  4235.00    65.500
  4240.00    65.385
  4245.00    65.355
  4250.00    65.345
  4255.00    65.225
  4260.00    65.235
  4265.00    64.980
  4270.00    64.840
  4275.00    64.830
  4280.00    64.720
  4285.00    64.675
  4290.00    64.535
  4295.00    64.505
  4300.00    64.320
  4305.00    64.145
  4310.00    64.000
  4315.00    63.910
  4320.00    63.730
  4325.00    63.580
  4330.00    63.490
  4335.00    63.280
  4340.00    63.125
  4345.00    62.960
  4350.00    62.865
  4355.00    62.540
  4360.00    62.270
  4365.00    62.175
  4370.00    62.125
  4375.00    61.915
  4380.00    61.715
  4385.00    61.530
  4390.00    61.395
  4395.00    61.170
  4400.00    60.965
  4405.00    60.860
  4410.00    60.675
  4415.00    60.500
  4420.00    60.155
  4425.00    60.035
  4430.00    59.775
  4435.00    59.635
  4440.00    59.295
  4445.00    58.985
  4450.00    58.775
  4455.00    58.425
  4460.00    58.155
  4465.00    57.830
  4470.00    57.585
  4475.00    57.045
  4480.00    56.695
  4485.00    56.235
  4490.00    55.960
  4495.00    55.685
  4500.00    55.260
  4505.00    54.855
  4510.00    54.430
  4515.00    54.055
  4520.00    53.800
  4525.00    53.465
  4530.00    53.030
  4535.00    52.710
  4540.00    52.365
  4545.00    51.980
  4550.00    51.625
  4555.00    51.195
  4560.00    50.775
  4565.00    50.380
  4570.00    49.920
  4575.00    49.440
  4580.00    49.040
  4585.00    48.520
  4590.00    48.050
  4595.00    47.450
  4600.00    46.990
  4605.00    46.465
  4610.00    45.890
  4615.00    45.340
  4620.00    44.750
  4625.00    44.125
  4630.00    43.475
  4635.00    42.890
  4640.00    42.270
  4645.00    41.575
  4650.00    40.890
  4655.00    40.190
  4660.00    39.440
  4665.00    38.715
  4670.00    37.940
  4675.00    37.150
  4680.00    36.365
  4685.00    35.515
  4690.00    34.695
  4695.00    33.895
  4700.00    33.045
  4705.00    32.270
  4710.00    31.420
  4715.00    30.570
  4720.00    29.750
  4725.00    28.890
  4730.00    28.100
  4735.00    27.310
  4740.00    26.555
  4745.00    25.760
  4750.00    25.005
  4755.00    24.240
  4760.00    23.450
  4765.00    22.720
  4770.00    21.955
  4775.00    21.270
  4780.00    20.525
  4785.00    19.825
  4790.00    19.120
  4795.00    18.430
  4800.00    17.770
  4805.00    17.115
  4810.00    16.450
  4815.00    15.830
  4820.00    15.160
  4825.00    14.550
  4830.00    13.945
  4835.00    13.355
  4840.00    12.795
  4845.00    12.230
  4850.00    11.690
  4855.00    11.180
  4860.00    10.670
  4865.00    10.180
  4870.00     9.725
  4875.00     9.280
  4880.00     8.860
  4885.00     8.430
  4890.00     8.030
  4895.00     7.675
  4900.00     7.315
  4905.00     6.980
  4910.00     6.650
  4915.00     6.345
  4920.00     6.045
  4925.00     5.755
  4930.00     5.495
  4935.00     5.240
  4940.00     5.000
  4945.00     4.780
  4950.00     4.565
  4955.00     4.375
  4960.00     4.180
  4965.00     4.005
  4970.00     3.845
  4975.00     3.680
  4980.00     3.525
  4985.00     3.375
  4990.00     3.225
  4995.00     3.095
  5000.00     2.950
  5005.00     2.825
  5010.00     2.680
  5015.00     2.545
  5020.00     2.400
  5025.00     2.270
  5030.00     2.140
  5035.00     2.010
  5040.00     1.880
  5045.00     1.755
  5050.00     1.640
  5055.00     1.525
  5060.00     1.425
  5065.00     1.325
  5070.00     1.230
  5075.00     1.140
  5080.00     1.065
  5085.00     0.985
  5090.00     0.920
  5095.00     0.850
  5100.00     0.790
  5105.00     0.740
  5110.00     0.690
  5115.00     0.640
  5120.00     0.595
  5125.00     0.555
  5130.00     0.515
  5135.00     0.480
  5140.00     0.450
  5145.00     0.415
  5150.00     0.380
  5155.00     0.355
  5160.00     0.330
  5165.00     0.300
  5170.00     0.275
  5175.00     0.255
  5180.00     0.235
  5185.00     0.215
  5190.00     0.195
  5195.00     0.175
  5200.00     0.160
  5205.00     0.150
  5210.00     0.135
  5215.00     0.120
  5220.00     0.110
  5225.00     0.100
  5230.00     0.090
  5235.00     0.080
  5240.00     0.075
  5245.00     0.065
  5250.00     0.060
  5255.00     0.055
  5260.00     0.050
  5265.00     0.045
  5270.00     0.040
  5275.00     0.035
  5280.00     0.035
  5285.00     0.030
  5290.00     0.030
  5295.00     0.025
  5300.00     0.020
  5305.00     0.020
  5310.00     0.020
  5315.00     0.020
  5320.00     0.015
  5325.00     0.015
  5330.00     0.015
  5335.00     0.015
  5340.00     0.010
  5345.00     0.010
  5350.00     0.010
  5355.00     0.010
  5360.00     0.005
  5365.00     0.010
  5370.00     0.005
  5375.00     0.005
  5380.00     0.005
  5385.00     0.010
  5390.00     0.005
  5395.00     0.005
  5400.00     0.010

